Sensor Model:	DT-670-CU-1.4L
Serial Number:	D6121829
Data Format:	6	(Volts/Kelvin)
Setpoint Limit:	325

Measurement (V)	Temp (K)	Curvature
4.94489E-01	3.29984E+02	-5.36413E+01
5.03723E-01	3.25970E+02	-4.75597E+01
5.17500E-01	3.19974E+02	-3.84865E+01
5.29015E-01	3.14957E+02	-1.84455E+01
5.52046E-01	3.04911E+02	-5.52217E+01
5.86321E-01	2.89906E+02	-8.26279E+01
6.20396E-01	2.74895E+02	-9.82220E+01
6.54187E-01	2.59892E+02	-1.29809E+02
6.87662E-01	2.44889E+02	-1.36370E+02
7.20789E-01	2.29889E+02	-1.56613E+02
7.53552E-01	2.14885E+02	-1.72182E+02
7.85918E-01	1.99881E+02	-1.96760E+02
8.17814E-01	1.84893E+02	-2.16747E+02
8.49268E-01	1.69894E+02	-2.56384E+02
8.80192E-01	1.54897E+02	-3.13757E+02
9.10533E-01	1.39888E+02	-3.96288E+02
9.40117E-01	1.24899E+02	-5.04688E+02
9.68867E-01	1.09905E+02	-6.44588E+02
9.87469E-01	9.99273E+01	-7.30564E+02
9.98433E-01	9.39293E+01	-8.27775E+02
1.00922E+00	8.79322E+01	-8.51653E+02
1.01982E+00	8.19429E+01	-9.11476E+02
1.03025E+00	7.59457E+01	-9.63977E+02
1.04051E+00	6.99530E+01	-9.15675E+02
1.05058E+00	6.39689E+01	-1.02259E+03
1.06051E+00	5.79744E+01	-8.54217E+02
1.07030E+00	5.19765E+01	-7.88680E+02
1.07996E+00	4.59835E+01	-9.41055E+02
1.08632E+00	4.19919E+01	-4.13799E+02
1.09270E+00	3.79957E+01	3.37031E+03
1.09763E+00	3.49920E+01	6.06372E+03
1.10281E+00	3.19958E+01	8.62999E+03
1.10652E+00	2.99939E+01	1.27847E+04
1.10850E+00	2.89949E+01	1.73524E+04
1.11063E+00	2.79981E+01	2.15681E+04
1.11250E+00	2.72024E+01	2.58157E+04
1.11462E+00	2.64059E+01	2.82338E+04
1.11717E+00	2.56143E+01	2.69279E+04
1.11964E+00	2.50137E+01	2.38162E+04
1.12302E+00	2.44166E+01	1.59593E+04
1.12838E+00	2.38185E+01	6.15442E+03
1.13755E+00	2.32181E+01	1.35372E+03
1.15039E+00	2.26233E+01	-1.15204E+02
1.16756E+00	2.18320E+01	-5.24419E+02
1.18222E+00	2.10546E+01	-4.18628E+02
1.19863E+00	2.00857E+01	-1.48846E+02
1.21616E+00	1.90000E+01	-2.20844E+01
1.23220E+00	1.79987E+01	6.83259E+01
1.24846E+00	1.70006E+01	1.32592E+02
1.26535E+00	1.59992E+01	1.57392E+02
1.28301E+00	1.49999E+01	1.85721E+02
1.30178E+00	1.40008E+01	1.92631E+02
1.32198E+00	1.29994E+01	1.79962E+02
1.34382E+00	1.19995E+01	1.62323E+02
1.36752E+00	1.10012E+01	1.43102E+02
1.39344E+00	1.00029E+01	1.35056E+02
1.42204E+00	9.00525E+00	1.18930E+02
1.45403E+00	8.00176E+00	8.88124E+01
1.48898E+00	7.00494E+00	3.78762E+01
1.52592E+00	5.99974E+00	-1.81840E+01
1.56183E+00	5.00148E+00	-6.22570E+01
1.58854E+00	4.20190E+00	-1.65857E+02
1.60357E+00	3.70333E+00	-2.57076E+02
1.61730E+00	3.20149E+00	-2.20860E+02
1.62751E+00	2.79954E+00	-2.78227E+02
1.63691E+00	2.40043E+00	-5.56974E+02
1.64526E+00	1.99949E+00	-1.32838E+03
1.65056E+00	1.69722E+00	-2.46862E+03
1.65479E+00	1.39884E+00	-6.42998E+03
1.65597E+00	1.29735E+00	-1.01495E+04
1.65701E+00	1.19651E+00	-1.34225E+04
