Sensor Model:   DT-670-CU-1.4L
Serial Number:  D6121829
Data Format:    2      (Volts/Kelvin)
SetPoint Limit: 325.0      (Kelvin)
Temperature coefficient:  1 (Negative)
Number of Breakpoints:   108

No.   Units      Temperature (K)

  1  9.06000e-02   500.000
  2  .110239       491.000
  3  .136555       479.500
  4  .179181       461.500
  5  .265393       425.500
  6  .349522       390.000
  7  .452797       346.000
  8  .505975       325.000
  9  .562163       300.500
 10  .600913       283.500
 11  .635984       268.000
 12  .666277       254.500
 13  .695197       241.500
 14  .722761       229.000
 15  .748977       217.000
 16  .774944       205.000
 17  .799571       193.500
 18  .822884       182.500
 19  .844900       172.000
 20  .865635       162.000
 21  .885100       152.500
 22  .903312       143.500
 23  .920284       135.000
 24  .936036       127.000
 25  .950590       119.500
 26  .964925       112.000
 27  .978083       105.000
 28  .988264        99.500
 29  .996495        95.000
 30  1.00463        90.500
 31  1.01266        86.000
 32  1.02060        81.500
 33  1.02844        77.000
 34  1.03618        72.500
 35  1.04382        68.000
 36  1.05137        63.500
 37  1.05981        58.400
 38  1.06832        53.200
 39  1.07673        48.000
 40  1.08536        42.600
 41  1.09124        38.900
 42  1.09529        36.400
 43  1.09846        34.500
 44  1.10121        32.900
 45  1.10388        31.400
 46  1.10612        30.200
 47  1.10808        29.200
 48  1.10974        28.400
 49  1.11130        27.700
 50  1.11275        27.100
 51  1.11407        26.600
 52  1.11553        26.100
 53  1.11686        25.700
 54  1.11837        25.300
 55  1.11970        25.000
 56  1.12124        24.700
 57  1.12311        24.400
 58  1.12545        24.100
 59  1.12745        23.900
 60  1.12982        23.700
 61  1.13267        23.500
 62  1.13601        23.300
 63  1.14192        23.000
 64  1.16206        22.100
 65  1.17221        21.600
 66  1.18326        21.000
 67  1.19848        20.100
 68  1.20165        19.900
 69  1.21459        19.100
 70  1.23376        17.900
 71  1.24844        17.000
 72  1.26102        16.250
 73  1.27314        15.550
 74  1.28480        14.900
 75  1.29599        14.300
 76  1.30666        13.750
 77  1.31777        13.200
 78  1.32937        12.650
 79  1.34150        12.100
 80  1.35419        11.550
 81  1.36750        11.000
 82  1.38019        10.500
 83  1.39346        10.000
 84  1.40743         9.500
 85  1.42064         9.050
 86  1.43450         8.600
 87  1.44904         8.150
 88  1.46599         7.650
 89  1.48728         7.050
 90  1.54131         5.580
 91  1.56265         4.980
 92  1.57830         4.520
 93  1.59054         4.140
 94  1.59903         3.860
 95  1.60597         3.620
 96  1.61285         3.370
 97  1.61996         3.100
 98  1.62678         2.830
 99  1.63258         2.590
100  1.63739         2.380
101  1.64127         2.200
102  1.64450         2.040
103  1.64731         1.890
104  1.64972         1.750
105  1.65177         1.620
106  1.65349         1.500
107  1.65478         1.400
108  1.65701         1.197
